# matter P(k), real space, TSC compensated+interlaced, multi-fold stitched
# snapdir       = /cosma8/data/dp203/bl267/Projects/Ongoing/HEFT/Runs/R1/CG/Phase_1/gadget_data/output_00011
# BoxSize       = 1024.0 Mpc/h (header 1023.999972, |diff|=2.807e-05)
# Nmesh         = 1024
# redshift z    = 0.875000
# scale a       = 0.533333
# Omega0        = 0.313772
# OmegaLambda   = 0.686228
# HubbleParam   = 0.673600
# Npart         = 1073741824
# ptype         = 1
# folds         = [1, 4, 8]
# k_joins       = [1.5707963267948966, 6.283185307179586]
# n_per_fold    = [255, 192, 384]
# V/N expected  = 1.000000e+00 (Mpc/h)^3
# shotnoise per fold = M=1:1.0000e+00, M=4:1.0000e+00, M=8:1.0000e+00
# columns: k[h/Mpc]  P(k)[(Mpc/h)^3]  modes  shotnoise[(Mpc/h)^3]  fold_id
8.69105602e-03 9.02653546e+03 26 1.00000000e+00 0
1.50325443e-02 1.07367222e+04 72 1.00000000e+00 0
2.10453790e-02 1.05337911e+04 152 1.00000000e+00 0
2.71841875e-02 9.31894444e+03 234 1.00000000e+00 0
3.35930555e-02 7.97398618e+03 416 1.00000000e+00 0
3.96781211e-02 6.76064896e+03 480 1.00000000e+00 0
4.57313309e-02 5.90489543e+03 722 1.00000000e+00 0
5.18691230e-02 5.41848627e+03 874 1.00000000e+00 0
5.80797126e-02 4.85173451e+03 1162 1.00000000e+00 0
6.42209474e-02 4.61370803e+03 1358 1.00000000e+00 0
7.02919430e-02 4.18048131e+03 1632 1.00000000e+00 0
7.65697609e-02 3.85336984e+03 2036 1.00000000e+00 0
8.28327998e-02 3.35676342e+03 2310 1.00000000e+00 0
8.88626419e-02 3.04417405e+03 2528 1.00000000e+00 0
9.49352440e-02 2.71237842e+03 3068 1.00000000e+00 0
1.01051081e-01 2.44069918e+03 3306 1.00000000e+00 0
1.07191836e-01 2.22290925e+03 3934 1.00000000e+00 0
1.13364070e-01 2.08360900e+03 4266 1.00000000e+00 0
1.19518461e-01 1.97552795e+03 4794 1.00000000e+00 0
1.25665752e-01 1.89369203e+03 5270 1.00000000e+00 0
1.31787193e-01 1.80776973e+03 5754 1.00000000e+00 0
1.37888770e-01 1.67932361e+03 6344 1.00000000e+00 0
1.44061267e-01 1.53990277e+03 7014 1.00000000e+00 0
1.50184520e-01 1.42967871e+03 7364 1.00000000e+00 0
1.56341809e-01 1.33263056e+03 8402 1.00000000e+00 0
1.62543896e-01 1.22995823e+03 8738 1.00000000e+00 0
1.68694024e-01 1.17021562e+03 9670 1.00000000e+00 0
1.74798738e-01 1.12995688e+03 9880 1.00000000e+00 0
1.80905716e-01 1.06828509e+03 11130 1.00000000e+00 0
1.87007949e-01 1.05772965e+03 11400 1.00000000e+00 0
1.93164403e-01 9.93112011e+02 12722 1.00000000e+00 0
1.99325760e-01 9.48106074e+02 13170 1.00000000e+00 0
2.05476260e-01 9.00226279e+02 14186 1.00000000e+00 0
2.11625738e-01 8.63337612e+02 14958 1.00000000e+00 0
2.17757865e-01 8.11023794e+02 15802 1.00000000e+00 0
2.23899114e-01 7.91862116e+02 16746 1.00000000e+00 0
2.30008198e-01 7.44986997e+02 17534 1.00000000e+00 0
2.36145471e-01 7.16580845e+02 18690 1.00000000e+00 0
2.42285710e-01 6.91561268e+02 19586 1.00000000e+00 0
2.48409958e-01 6.66678864e+02 20524 1.00000000e+00 0
2.54544196e-01 6.43706078e+02 21652 1.00000000e+00 0
2.60691713e-01 6.24617135e+02 22760 1.00000000e+00 0
2.66858020e-01 5.98063034e+02 23892 1.00000000e+00 0
2.73001956e-01 5.80429307e+02 24854 1.00000000e+00 0
2.79138987e-01 5.59608026e+02 26040 1.00000000e+00 0
2.85242500e-01 5.37216162e+02 26804 1.00000000e+00 0
2.91353200e-01 5.19964316e+02 28500 1.00000000e+00 0
2.97514317e-01 5.05125017e+02 29564 1.00000000e+00 0
3.03654467e-01 4.90378835e+02 30834 1.00000000e+00 0
3.09788379e-01 4.78397366e+02 31890 1.00000000e+00 0
3.15948668e-01 4.59735888e+02 33766 1.00000000e+00 0
3.22106623e-01 4.46239177e+02 34464 1.00000000e+00 0
3.28257261e-01 4.37461403e+02 36220 1.00000000e+00 0
3.34354438e-01 4.29305290e+02 36670 1.00000000e+00 0
3.40481362e-01 4.15043488e+02 39114 1.00000000e+00 0
3.46625954e-01 4.04935861e+02 39898 1.00000000e+00 0
3.52731491e-01 3.93990331e+02 41264 1.00000000e+00 0
3.58870095e-01 3.82923130e+02 43320 1.00000000e+00 0
3.65008349e-01 3.77840010e+02 44184 1.00000000e+00 0
3.71170404e-01 3.65702801e+02 46548 1.00000000e+00 0
3.77313731e-01 3.55148099e+02 47198 1.00000000e+00 0
3.83420237e-01 3.45924224e+02 48802 1.00000000e+00 0
3.89581311e-01 3.40820685e+02 51418 1.00000000e+00 0
3.95724705e-01 3.34715011e+02 51588 1.00000000e+00 0
4.01864101e-01 3.26044872e+02 54644 1.00000000e+00 0
4.07998665e-01 3.17591627e+02 54842 1.00000000e+00 0
4.14106651e-01 3.13808992e+02 57338 1.00000000e+00 0
4.20257691e-01 3.07189009e+02 59214 1.00000000e+00 0
4.26406695e-01 2.99006332e+02 60642 1.00000000e+00 0
4.32525483e-01 2.90569757e+02 62202 1.00000000e+00 0
4.38639565e-01 2.87990373e+02 63990 1.00000000e+00 0
4.44768145e-01 2.83147630e+02 65962 1.00000000e+00 0
4.50943750e-01 2.76964689e+02 68930 1.00000000e+00 0
4.57103806e-01 2.73423445e+02 69218 1.00000000e+00 0
4.63239446e-01 2.62710984e+02 72086 1.00000000e+00 0
4.69379076e-01 2.64152371e+02 73216 1.00000000e+00 0
4.75500799e-01 2.56861021e+02 75364 1.00000000e+00 0
4.81614802e-01 2.52252340e+02 77142 1.00000000e+00 0
4.87744811e-01 2.49723834e+02 79322 1.00000000e+00 0
4.93864443e-01 2.44781243e+02 81122 1.00000000e+00 0
4.99999077e-01 2.38617507e+02 83740 1.00000000e+00 0
5.06173978e-01 2.35489122e+02 86228 1.00000000e+00 0
5.12317624e-01 2.31539488e+02 87242 1.00000000e+00 0
5.18441920e-01 2.29580332e+02 89504 1.00000000e+00 0
5.24581107e-01 2.25529870e+02 92366 1.00000000e+00 0
5.30733972e-01 2.20891532e+02 93908 1.00000000e+00 0
5.36866293e-01 2.16141812e+02 96226 1.00000000e+00 0
5.42962847e-01 2.15548450e+02 97172 1.00000000e+00 0
5.49107340e-01 2.11991333e+02 101996 1.00000000e+00 0
5.55276261e-01 2.07268296e+02 102834 1.00000000e+00 0
5.61408280e-01 2.05076313e+02 104936 1.00000000e+00 0
5.67537153e-01 2.04406301e+02 107664 1.00000000e+00 0
5.73674002e-01 1.99933819e+02 109730 1.00000000e+00 0
5.79810360e-01 1.96223125e+02 112242 1.00000000e+00 0
5.85942537e-01 1.93326082e+02 114548 1.00000000e+00 0
5.92058677e-01 1.91958659e+02 116204 1.00000000e+00 0
5.98194154e-01 1.88578721e+02 120210 1.00000000e+00 0
6.04359077e-01 1.87533463e+02 122224 1.00000000e+00 0
6.10491023e-01 1.83000000e+02 124000 1.00000000e+00 0
6.16605050e-01 1.82189944e+02 126490 1.00000000e+00 0
6.22756542e-01 1.79584905e+02 130298 1.00000000e+00 0
6.28897776e-01 1.77280529e+02 131516 1.00000000e+00 0
6.35033271e-01 1.75299094e+02 135028 1.00000000e+00 0
6.41174304e-01 1.72909380e+02 137034 1.00000000e+00 0
6.47307114e-01 1.71629899e+02 139940 1.00000000e+00 0
6.53439296e-01 1.67225789e+02 142044 1.00000000e+00 0
6.59578376e-01 1.65809142e+02 146098 1.00000000e+00 0
6.65708575e-01 1.64991788e+02 146616 1.00000000e+00 0
6.71836971e-01 1.62586974e+02 151608 1.00000000e+00 0
6.77967567e-01 1.61556279e+02 152154 1.00000000e+00 0
6.84102560e-01 1.59467597e+02 157362 1.00000000e+00 0
6.90247335e-01 1.58482609e+02 158588 1.00000000e+00 0
6.96389618e-01 1.55292307e+02 162268 1.00000000e+00 0
7.02535445e-01 1.53790039e+02 165050 1.00000000e+00 0
7.08679526e-01 1.52109517e+02 167736 1.00000000e+00 0
7.14810530e-01 1.50513489e+02 170208 1.00000000e+00 0
7.20948919e-01 1.48264235e+02 173906 1.00000000e+00 0
7.27077592e-01 1.47211998e+02 175530 1.00000000e+00 0
7.33190662e-01 1.45604613e+02 179252 1.00000000e+00 0
7.39338668e-01 1.44897306e+02 183068 1.00000000e+00 0
7.45482275e-01 1.42560766e+02 185482 1.00000000e+00 0
7.51611881e-01 1.41846072e+02 188062 1.00000000e+00 0
7.57755331e-01 1.39919343e+02 192642 1.00000000e+00 0
7.63904290e-01 1.38556149e+02 194714 1.00000000e+00 0
7.70055606e-01 1.38108391e+02 198818 1.00000000e+00 0
7.76164608e-01 1.35401827e+02 198588 1.00000000e+00 0
7.82276039e-01 1.34179137e+02 204972 1.00000000e+00 0
7.88416527e-01 1.33313593e+02 207090 1.00000000e+00 0
7.94559128e-01 1.32230922e+02 211604 1.00000000e+00 0
8.00701931e-01 1.30788525e+02 213500 1.00000000e+00 0
8.06832247e-01 1.30121651e+02 217458 1.00000000e+00 0
8.12979576e-01 1.28477592e+02 221122 1.00000000e+00 0
8.19138419e-01 1.27879027e+02 225174 1.00000000e+00 0
8.25263653e-01 1.26105785e+02 225458 1.00000000e+00 0
8.31380127e-01 1.24958948e+02 230778 1.00000000e+00 0
8.37520652e-01 1.24217470e+02 234662 1.00000000e+00 0
8.43659618e-01 1.22634881e+02 237090 1.00000000e+00 0
8.49792655e-01 1.21766707e+02 241490 1.00000000e+00 0
8.55926102e-01 1.21198399e+02 243670 1.00000000e+00 0
8.62063522e-01 1.19716993e+02 248962 1.00000000e+00 0
8.68199112e-01 1.18165138e+02 250954 1.00000000e+00 0
8.74325806e-01 1.17477411e+02 254682 1.00000000e+00 0
8.80464996e-01 1.16761185e+02 259766 1.00000000e+00 0
8.86606072e-01 1.15805247e+02 261490 1.00000000e+00 0
8.92749745e-01 1.14747081e+02 267762 1.00000000e+00 0
8.98900218e-01 1.13739101e+02 269254 1.00000000e+00 0
9.05033429e-01 1.12633565e+02 273402 1.00000000e+00 0
9.11166273e-01 1.12309649e+02 276978 1.00000000e+00 0
9.17314185e-01 1.11153315e+02 281930 1.00000000e+00 0
9.23438623e-01 1.10365895e+02 282726 1.00000000e+00 0
9.29558691e-01 1.09424240e+02 288634 1.00000000e+00 0
9.35686613e-01 1.08597499e+02 291194 1.00000000e+00 0
9.41834200e-01 1.07574840e+02 298316 1.00000000e+00 0
9.47985667e-01 1.07149099e+02 299116 1.00000000e+00 0
9.54110454e-01 1.06337229e+02 303746 1.00000000e+00 0
9.60240859e-01 1.05708768e+02 307130 1.00000000e+00 0
9.66367360e-01 1.04670661e+02 311454 1.00000000e+00 0
9.72510936e-01 1.03919544e+02 316794 1.00000000e+00 0
9.78653922e-01 1.03337511e+02 319130 1.00000000e+00 0
9.84774280e-01 1.02177341e+02 322756 1.00000000e+00 0
9.90916323e-01 1.01583276e+02 328980 1.00000000e+00 0
9.97064161e-01 1.00666301e+02 332168 1.00000000e+00 0
1.00319936e+00 9.98791040e+01 335462 1.00000000e+00 0
1.00933788e+00 9.93059702e+01 340556 1.00000000e+00 0
1.01547865e+00 9.86222705e+01 344474 1.00000000e+00 0
1.02160945e+00 9.82011947e+01 347186 1.00000000e+00 0
1.02773776e+00 9.69902898e+01 353238 1.00000000e+00 0
1.03386818e+00 9.63475034e+01 355162 1.00000000e+00 0
1.04000663e+00 9.59909698e+01 362784 1.00000000e+00 0
1.04615681e+00 9.51619745e+01 365502 1.00000000e+00 0
1.05229585e+00 9.46293431e+01 369490 1.00000000e+00 0
1.05842598e+00 9.38871308e+01 373636 1.00000000e+00 0
1.06456261e+00 9.33931890e+01 378154 1.00000000e+00 0
1.07069877e+00 9.25924770e+01 383198 1.00000000e+00 0
1.07684073e+00 9.24383797e+01 387226 1.00000000e+00 0
1.08297231e+00 9.12478895e+01 390432 1.00000000e+00 0
1.08908795e+00 9.09812709e+01 394574 1.00000000e+00 0
1.09521749e+00 9.02312970e+01 400524 1.00000000e+00 0
1.10136050e+00 8.98119000e+01 406018 1.00000000e+00 0
1.10750954e+00 8.92891470e+01 409750 1.00000000e+00 0
1.11363727e+00 8.84706236e+01 412474 1.00000000e+00 0
1.11976603e+00 8.77703389e+01 419122 1.00000000e+00 0
1.12592120e+00 8.74562054e+01 424984 1.00000000e+00 0
1.13206059e+00 8.66494683e+01 426552 1.00000000e+00 0
1.13819384e+00 8.59159097e+01 433106 1.00000000e+00 0
1.14433129e+00 8.59141699e+01 436490 1.00000000e+00 0
1.15047742e+00 8.52731940e+01 444102 1.00000000e+00 0
1.15661306e+00 8.48147831e+01 443858 1.00000000e+00 0
1.16273502e+00 8.42627716e+01 452058 1.00000000e+00 0
1.16886311e+00 8.38772956e+01 453904 1.00000000e+00 0
1.17500312e+00 8.33829959e+01 463582 1.00000000e+00 0
1.18114106e+00 8.24603760e+01 463204 1.00000000e+00 0
1.18727091e+00 8.23272001e+01 471858 1.00000000e+00 0
1.19341024e+00 8.19166312e+01 474806 1.00000000e+00 0
1.19955452e+00 8.11949507e+01 481650 1.00000000e+00 0
1.20569924e+00 8.06927533e+01 485714 1.00000000e+00 0
1.21182361e+00 8.02750582e+01 487664 1.00000000e+00 0
1.21794819e+00 7.98913636e+01 495672 1.00000000e+00 0
1.22408847e+00 7.94038412e+01 500370 1.00000000e+00 0
1.23022646e+00 7.87190496e+01 505050 1.00000000e+00 0
1.23636155e+00 7.83318776e+01 510622 1.00000000e+00 0
1.24249679e+00 7.77800528e+01 514178 1.00000000e+00 0
1.24863747e+00 7.79011150e+01 522506 1.00000000e+00 0
1.25477247e+00 7.72176505e+01 523270 1.00000000e+00 0
1.26091449e+00 7.64811066e+01 533944 1.00000000e+00 0
1.26705791e+00 7.61443520e+01 534028 1.00000000e+00 0
1.27318637e+00 7.57880731e+01 541130 1.00000000e+00 0
1.27931799e+00 7.52766735e+01 545878 1.00000000e+00 0
1.28545487e+00 7.48603767e+01 551842 1.00000000e+00 0
1.29159044e+00 7.45447377e+01 556466 1.00000000e+00 0
1.29772229e+00 7.39940523e+01 561564 1.00000000e+00 0
1.30385345e+00 7.36600230e+01 567156 1.00000000e+00 0
1.31000079e+00 7.32902650e+01 575426 1.00000000e+00 0
1.31614372e+00 7.27607692e+01 576506 1.00000000e+00 0
1.32226776e+00 7.25327333e+01 583046 1.00000000e+00 0
1.32840190e+00 7.19865841e+01 589450 1.00000000e+00 0
1.33453761e+00 7.15236471e+01 593560 1.00000000e+00 0
1.34067855e+00 7.12940219e+01 602030 1.00000000e+00 0
1.34681515e+00 7.08252080e+01 603300 1.00000000e+00 0
1.35294020e+00 7.07834682e+01 611042 1.00000000e+00 0
1.35908241e+00 7.03213861e+01 617662 1.00000000e+00 0
1.36522017e+00 6.94336670e+01 621154 1.00000000e+00 0
1.37135563e+00 6.90629140e+01 628954 1.00000000e+00 0
1.37749731e+00 6.92295631e+01 632680 1.00000000e+00 0
1.38363308e+00 6.84805984e+01 640102 1.00000000e+00 0
1.38976648e+00 6.83067741e+01 642714 1.00000000e+00 0
1.39589890e+00 6.79247326e+01 651756 1.00000000e+00 0
1.40203820e+00 6.76134399e+01 655422 1.00000000e+00 0
1.40818175e+00 6.72648672e+01 663842 1.00000000e+00 0
1.41431367e+00 6.69906182e+01 665330 1.00000000e+00 0
1.42044438e+00 6.65663415e+01 674208 1.00000000e+00 0
1.42658277e+00 6.62793232e+01 679342 1.00000000e+00 0
1.43272617e+00 6.59487613e+01 686356 1.00000000e+00 0
1.43886166e+00 6.56484174e+01 689818 1.00000000e+00 0
1.44499178e+00 6.54442286e+01 697150 1.00000000e+00 0
1.45112957e+00 6.47837754e+01 702538 1.00000000e+00 0
1.45725970e+00 6.43768109e+01 708058 1.00000000e+00 0
1.46338150e+00 6.42861026e+01 712262 1.00000000e+00 0
1.46951753e+00 6.39807828e+01 723312 1.00000000e+00 0
1.47566055e+00 6.35931612e+01 725860 1.00000000e+00 0
1.48180049e+00 6.33176876e+01 734514 1.00000000e+00 0
1.48794373e+00 6.27618893e+01 739446 1.00000000e+00 0
1.49408484e+00 6.23810024e+01 745738 1.00000000e+00 0
1.50023099e+00 6.24475448e+01 753042 1.00000000e+00 0
1.50636384e+00 6.20744380e+01 754830 1.00000000e+00 0
1.51248611e+00 6.18930756e+01 762520 1.00000000e+00 0
1.51862769e+00 6.14275241e+01 772588 1.00000000e+00 0
1.52476535e+00 6.09881620e+01 773274 1.00000000e+00 0
1.53089095e+00 6.08926819e+01 782366 1.00000000e+00 0
1.53702813e+00 6.06764835e+01 788850 1.00000000e+00 0
1.54316981e+00 6.01943775e+01 795730 1.00000000e+00 0
1.54930673e+00 5.99782284e+01 800860 1.00000000e+00 0
1.55543429e+00 5.95424092e+01 805226 1.00000000e+00 0
1.56157145e+00 5.93026337e+01 816948 1.00000000e+00 0
1.56771918e+00 5.92427972e+01 820034 1.00000000e+00 0
1.58289882e+00 5.83470865e+01 51588 1.00000000e+00 1
1.60745640e+00 5.73526188e+01 54644 1.00000000e+00 1
1.63199466e+00 5.61303882e+01 54842 1.00000000e+00 1
1.65642660e+00 5.48597265e+01 57338 1.00000000e+00 1
1.68103076e+00 5.40587023e+01 59214 1.00000000e+00 1
1.70562678e+00 5.29178498e+01 60642 1.00000000e+00 1
1.73010193e+00 5.21844675e+01 62202 1.00000000e+00 1
1.75455826e+00 5.10141585e+01 63990 1.00000000e+00 1
1.77907258e+00 5.04425616e+01 65962 1.00000000e+00 1
1.80377500e+00 4.94089148e+01 68930 1.00000000e+00 1
1.82841522e+00 4.91135759e+01 69218 1.00000000e+00 1
1.85295779e+00 4.80254418e+01 72086 1.00000000e+00 1
1.87751630e+00 4.72637777e+01 73216 1.00000000e+00 1
1.90200319e+00 4.64315721e+01 75364 1.00000000e+00 1
1.92645921e+00 4.51760001e+01 77142 1.00000000e+00 1
1.95097924e+00 4.45448173e+01 79322 1.00000000e+00 1
1.97545777e+00 4.39497639e+01 81122 1.00000000e+00 1
1.99999631e+00 4.34155332e+01 83740 1.00000000e+00 1
2.02469591e+00 4.23687201e+01 86228 1.00000000e+00 1
2.04927050e+00 4.17074288e+01 87242 1.00000000e+00 1
2.07376768e+00 4.10367051e+01 89504 1.00000000e+00 1
2.09832443e+00 4.04079017e+01 92366 1.00000000e+00 1
2.12293589e+00 3.95701937e+01 93908 1.00000000e+00 1
2.14746517e+00 3.92625798e+01 96226 1.00000000e+00 1
2.17185139e+00 3.82026510e+01 97172 1.00000000e+00 1
2.19642936e+00 3.80327121e+01 101996 1.00000000e+00 1
2.22110504e+00 3.71378435e+01 102834 1.00000000e+00 1
2.24563312e+00 3.66475471e+01 104936 1.00000000e+00 1
2.27014861e+00 3.60789006e+01 107664 1.00000000e+00 1
2.29469601e+00 3.55852798e+01 109730 1.00000000e+00 1
2.31924144e+00 3.47280519e+01 112242 1.00000000e+00 1
2.34377015e+00 3.45241929e+01 114548 1.00000000e+00 1
2.36823471e+00 3.39896217e+01 116204 1.00000000e+00 1
2.39277662e+00 3.34586994e+01 120210 1.00000000e+00 1
2.41743631e+00 3.26768065e+01 122224 1.00000000e+00 1
2.44196409e+00 3.26414093e+01 124000 1.00000000e+00 1
2.46642020e+00 3.18504032e+01 126490 1.00000000e+00 1
2.49102617e+00 3.14711507e+01 130298 1.00000000e+00 1
2.51559110e+00 3.09365895e+01 131516 1.00000000e+00 1
2.54013308e+00 3.04080709e+01 135028 1.00000000e+00 1
2.56469722e+00 2.98803162e+01 137034 1.00000000e+00 1
2.58922845e+00 2.93798807e+01 139940 1.00000000e+00 1
2.61375718e+00 2.90602947e+01 142044 1.00000000e+00 1
2.63831350e+00 2.86550997e+01 146098 1.00000000e+00 1
2.66283430e+00 2.82712443e+01 146616 1.00000000e+00 1
2.68734788e+00 2.79280117e+01 151608 1.00000000e+00 1
2.71187027e+00 2.74887170e+01 152154 1.00000000e+00 1
2.73641024e+00 2.70681836e+01 157362 1.00000000e+00 1
2.76098934e+00 2.67174912e+01 158588 1.00000000e+00 1
2.78555847e+00 2.62369044e+01 162268 1.00000000e+00 1
2.81014178e+00 2.58458194e+01 165050 1.00000000e+00 1
2.83471810e+00 2.56757404e+01 167736 1.00000000e+00 1
2.85924212e+00 2.51427166e+01 170208 1.00000000e+00 1
2.88379567e+00 2.48607294e+01 173906 1.00000000e+00 1
2.90831037e+00 2.45384920e+01 175530 1.00000000e+00 1
2.93276265e+00 2.44631552e+01 179252 1.00000000e+00 1
2.95735467e+00 2.39002283e+01 183068 1.00000000e+00 1
2.98192910e+00 2.36130029e+01 185482 1.00000000e+00 1
3.00644752e+00 2.32574470e+01 188062 1.00000000e+00 1
3.03102133e+00 2.29089217e+01 192642 1.00000000e+00 1
3.05561716e+00 2.26099818e+01 194714 1.00000000e+00 1
3.08022242e+00 2.23327013e+01 198818 1.00000000e+00 1
3.10465843e+00 2.19934185e+01 198588 1.00000000e+00 1
3.12910416e+00 2.16571702e+01 204972 1.00000000e+00 1
3.15366611e+00 2.13496547e+01 207090 1.00000000e+00 1
3.17823651e+00 2.11852659e+01 211604 1.00000000e+00 1
3.20280772e+00 2.09062319e+01 213500 1.00000000e+00 1
3.22732899e+00 2.05112688e+01 217458 1.00000000e+00 1
3.25191830e+00 2.03379492e+01 221122 1.00000000e+00 1
3.27655368e+00 2.00833000e+01 225174 1.00000000e+00 1
3.30105461e+00 1.98761920e+01 225458 1.00000000e+00 1
3.32552051e+00 1.94806654e+01 230778 1.00000000e+00 1
3.35008261e+00 1.93975995e+01 234662 1.00000000e+00 1
3.37463847e+00 1.90156417e+01 237090 1.00000000e+00 1
3.39917062e+00 1.87542155e+01 241490 1.00000000e+00 1
3.42370441e+00 1.86301678e+01 243670 1.00000000e+00 1
3.44825409e+00 1.82468248e+01 248962 1.00000000e+00 1
3.47279645e+00 1.81108849e+01 250954 1.00000000e+00 1
3.49730323e+00 1.78762221e+01 254682 1.00000000e+00 1
3.52185999e+00 1.76085823e+01 259766 1.00000000e+00 1
3.54642429e+00 1.74123102e+01 261490 1.00000000e+00 1
3.57099898e+00 1.72124797e+01 267762 1.00000000e+00 1
3.59560087e+00 1.70700380e+01 269254 1.00000000e+00 1
3.62013371e+00 1.68048496e+01 273402 1.00000000e+00 1
3.64466509e+00 1.66469575e+01 276978 1.00000000e+00 1
3.66925674e+00 1.62918366e+01 281930 1.00000000e+00 1
3.69375449e+00 1.61493425e+01 282726 1.00000000e+00 1
3.71823477e+00 1.59361995e+01 288634 1.00000000e+00 1
3.74274645e+00 1.58107138e+01 291194 1.00000000e+00 1
3.76733680e+00 1.56245592e+01 298316 1.00000000e+00 1
3.79194267e+00 1.54105029e+01 299116 1.00000000e+00 1
3.81644182e+00 1.52179123e+01 303746 1.00000000e+00 1
3.84096344e+00 1.50951340e+01 307130 1.00000000e+00 1
3.86546944e+00 1.48965401e+01 311454 1.00000000e+00 1
3.89004375e+00 1.46672143e+01 316794 1.00000000e+00 1
3.91461569e+00 1.44910146e+01 319130 1.00000000e+00 1
3.93909712e+00 1.43470578e+01 322756 1.00000000e+00 1
3.96366529e+00 1.42458554e+01 328980 1.00000000e+00 1
3.98825665e+00 1.40398458e+01 332168 1.00000000e+00 1
4.01279745e+00 1.39165852e+01 335462 1.00000000e+00 1
4.03735154e+00 1.37291268e+01 340556 1.00000000e+00 1
4.06191459e+00 1.35945862e+01 344474 1.00000000e+00 1
4.08643782e+00 1.33971517e+01 347186 1.00000000e+00 1
